"time","x","y","position","velocity","acceleration","jerk","heading"
0,490.269,33.6108,0,0,0,0,180
0.02,490.129,33.6108,0.140023,7.00113,350.057,17502.8,179.996
0.04,489.988,33.6108,0.28129,7.06335,3.11087,-17347.3,179.993
0.06,489.848,33.6108,0.421312,7.00113,-3.11087,-311.087,179.989
0.08,489.707,33.6108,0.561579,7.01335,0.610865,186.087,179.986
0.1,489.566,33.6108,0.702602,7.05113,1.88913,63.9135,179.982
0.12,489.426,33.6109,0.842624,7.00113,-2.49991,-219.452,179.978
0.14,489.285,33.6109,0.983891,7.06335,3.11078,280.534,179.975
0.16,488.963,33.6111,1.30576,16.0934,451.505,22419.7,179.954
0.18,488.627,33.6113,1.64163,16.7934,35,-20825.2,179.933
0.2,488.291,33.6117,1.97825,16.8312,1.88957,-1655.52,179.911
0.22,487.856,33.6125,2.4125,21.7125,244.062,12108.6,179.867
0.24,487.422,33.6136,2.84675,21.7125,0.00224692,-12203,179.823
0.26,486.931,33.6153,3.33812,24.5682,142.786,7139.18,179.759
0.28,486.42,33.6177,3.84878,25.5329,48.2316,-4727.71,179.688
0.3,485.855,33.6211,4.41433,28.2777,137.241,4450.47,179.592
0.32,485.27,33.6257,4.99945,29.2559,48.911,-4416.51,179.486
0.34,484.64,33.6321,5.62874,31.4646,110.433,3076.12,179.352
0.36,483.977,33.6404,6.2917,33.148,84.1706,-1313.14,179.192
0.38,483.286,33.6512,6.98307,34.5687,71.0368,-656.691,179.009
0.4,482.563,33.6649,7.70614,36.1536,79.2419,410.253,178.8
0.42,481.8,33.6824,8.46976,38.1809,101.369,1106.36,178.552
0.44,481.007,33.7042,9.26292,39.6577,73.8367,-1376.62,178.273
0.46,480.184,33.7312,10.0862,41.1635,75.2911,72.7193,177.957
0.48,479.332,33.764,10.9389,42.6355,73.601,-84.5076,177.601
0.5,478.45,33.8039,11.8216,44.1376,75.1044,75.1737,177.203
0.52,477.541,33.8518,12.7326,45.546,70.4212,-234.162,176.759
0.54,476.604,33.9088,13.6708,46.9124,68.3166,-105.228,176.265
0.56,475.64,33.9762,14.6373,48.3255,70.6565,116.993,175.72
0.58,474.65,34.0554,15.6306,49.662,66.8274,-191.454,175.125
0.6,473.634,34.1477,16.6508,51.0116,67.4763,32.4427,174.48
0.62,472.588,34.2551,17.7019,52.5556,77.2017,486.269,173.779
0.64,471.514,34.379,18.7831,54.0603,75.2365,-98.2575,173.046
0.66,470.411,34.521,19.8953,55.611,77.5336,114.853,172.279
0.68,469.274,34.6831,21.0434,57.4034,89.6187,604.257,171.5
0.7,468.097,34.8676,22.2354,59.6016,109.909,1014.51,170.724
0.72,466.878,35.0753,23.472,61.8292,111.38,73.5498,169.981
0.74,465.599,35.3095,24.7724,65.0188,159.484,2405.2,169.32
0.76,464.264,35.5689,26.1324,67.9982,148.966,-525.892,168.753
0.78,462.846,35.8569,27.5784,72.3023,215.208,3312.1,168.365
0.8,461.35,36.1691,29.1073,76.444,207.087,-406.076,168.163
0.82,459.782,36.4987,30.709,80.0873,182.165,-1246.09,168.19
0.84,458.19,36.8295,32.3351,81.3045,60.8581,-6065.33,168.437
0.86,456.593,37.1513,33.9647,81.4798,8.76733,-2604.54,168.869
0.88,454.996,37.458,35.5904,81.2846,-9.76482,-926.608,169.442
0.9,453.409,37.7445,37.2032,80.6412,-32.1669,-1120.1,170.133
0.92,451.842,38.0069,38.7919,79.4321,-60.4569,-1414.5,170.875
0.94,450.308,38.243,40.3443,77.6235,-90.4307,-1498.69,171.651
0.96,448.809,38.4528,41.8583,75.6953,-96.4067,-298.801,172.425
0.98,447.347,38.6373,43.3313,73.654,-102.066,-282.957,173.186
1,445.938,38.7966,44.7496,70.9152,-136.94,-1743.7,173.904
1.02,444.573,38.934,46.1211,68.5716,-117.183,987.845,174.589
1.04,443.259,39.0511,47.4406,65.9753,-129.815,-631.596,175.223
1.06,441.995,39.1501,48.7087,63.4068,-128.424,69.5344,175.807
1.08,440.782,39.2332,49.9245,60.7887,-130.901,-123.851,176.34
1.1,439.62,39.3025,51.0884,58.1935,-129.762,56.9628,176.823
1.12,438.511,39.3597,52.199,55.5311,-133.121,-167.925,177.258
1.14,437.452,39.4066,53.259,52.9998,-126.565,327.753,177.647
1.16,436.444,39.4448,54.2672,50.4103,-129.472,-145.314,177.993
1.18,435.486,39.4756,55.2257,47.9235,-124.341,256.559,178.3
1.2,434.577,39.5004,56.1354,45.4887,-121.744,129.815,178.572
1.22,433.713,39.52,56.9995,43.2048,-114.194,377.499,178.813
1.24,432.891,39.5355,57.8215,41.0969,-105.394,440.028,179.025
1.26,432.129,39.5472,58.5841,38.1301,-148.34,-2147.33,179.199
1.28,431.411,39.5562,59.3015,35.873,-112.853,1774.37,179.348
1.3,430.729,39.563,59.9841,34.1265,-87.3252,1276.38,179.481
1.32,430.104,39.568,60.609,31.246,-144.027,-2835.07,179.587
1.34,429.519,39.5717,61.1942,29.2623,-99.1839,2242.13,179.678
1.36,428.973,39.5743,61.7398,27.2788,-99.1753,0.425393,179.754
1.38,428.482,39.576,62.2312,24.571,-135.392,-1810.83,179.813
1.4,428.025,39.5773,62.6874,22.8109,-88.0013,2369.53,179.863
1.42,427.609,39.5781,63.1042,20.8387,-98.6107,-530.472,179.903
1.44,427.262,39.5786,63.4513,17.3555,-174.164,-3777.66,179.928
1.46,426.914,39.5789,63.7984,17.3554,-0.000586698,8708.17,179.953
1.48,426.658,39.5791,64.0553,12.8455,-225.498,-11274.9,179.969
1.5,426.516,39.5791,64.1971,7.08665,-287.941,-3122.18,179.972
1.52,426.373,39.5792,64.34,7.14887,3.11095,14552.6,179.976
1.54,426.231,39.5792,64.482,7.09887,-2.50009,-280.552,179.98
1.56,426.089,39.5792,64.624,7.09887,5.92757e-08,125.004,179.984
1.58,425.946,39.5793,64.767,7.14887,2.50009,125.004,179.988
1.6,425.804,39.5793,64.9087,7.08665,-3.11095,-280.552,179.991
