"time","x","y","position","velocity","acceleration","jerk","heading"
0,252.174,26.8775,0,0,180,0,0
0.02,252.364,26.8775,0.189737,3.6,180,0,-0.000292315
0.04,252.554,26.8775,0.379473,7.2,180,0,-0.000584629
0.06,252.744,26.8775,0.56921,10.8,180,0,-0.000876944
0.08,252.933,26.8775,0.758947,14.4,180,0,-0.00116926
0.1,253.123,26.8775,0.948683,18,180,0,-0.00146157
0.12,253.508,26.8775,1.33418,21.6,180,0,-0.00224265
0.14,253.967,26.8775,1.79224,25.2,180,0,-0.00320492
0.16,254.501,26.8775,2.3262,28.8,180,0,-0.00510259
0.18,255.097,26.8774,2.92317,32.4,180,0,-0.00777666
0.2,255.791,26.8773,3.61697,36,180,0,-0.0115302
0.22,256.543,26.8771,4.36898,39.6,180,0,-0.01631
0.24,257.365,26.8768,5.19104,43.2,180,0,-0.0225241
0.26,258.261,26.8764,6.08706,46.8,180,0,-0.0304025
0.28,259.232,26.8758,7.05782,50.4,180,0,-0.0399932
0.3,260.277,26.875,8.10271,54,180,0,-0.0521782
0.32,261.395,26.8739,9.22053,57.6,180,0,-0.066235
0.34,262.584,26.8723,10.4098,61.2,180,0,-0.0834244
0.36,263.843,26.8703,11.6688,64.8,180,0,-0.10311
0.38,265.17,26.8677,12.9961,68.4,180,0,-0.125659
0.4,266.578,26.8643,14.4042,72,180,0,-0.151922
0.42,268.052,26.86,15.8777,75.6,180,0,-0.181155
0.44,269.602,26.8546,17.4275,79.2,180,0,-0.214436
0.46,271.219,26.8481,19.0445,82.8,180,0,-0.25126
0.48,272.913,26.8401,20.7384,86.4,180,0,-0.292063
0.5,274.677,26.8304,22.5028,90,180,0,-0.336819
0.52,276.512,26.8188,24.3383,93.6,180,0,-0.385579
0.54,278.42,26.8051,26.2457,97.2,180,0,-0.438336
0.56,280.4,26.789,28.2255,100.8,180,0,-0.494965
0.58,282.452,26.7702,30.2776,104.4,180,0,-0.555335
0.6,284.576,26.7485,32.4018,108,180,0,-0.619255
0.62,286.771,26.7235,34.5977,111.6,180,0,-0.686214
0.64,289.038,26.6949,36.8648,115.2,180,0,-0.755685
0.66,291.378,26.6626,39.205,118.8,180,0,-0.826996
0.68,293.79,26.6262,41.6174,122.4,180,0,-0.899152
0.7,296.273,26.5857,44.1005,126,180,0,-0.970939
0.72,298.83,26.5408,46.6572,129.6,180,0,-1.0408
0.74,301.457,26.4915,49.285,133.2,180,0,-1.10681
0.76,304.155,26.4379,51.9841,136.8,180,0,-1.16661
0.78,306.928,26.3802,54.7568,140.4,180,0,-1.217
0.8,309.771,26.3187,57.601,144,180,0,-1.25451
0.82,312.686,26.2543,60.517,147.6,180,0,-1.27466
0.84,315.674,26.1877,63.505,151.2,180,0,-1.27219
0.86,318.733,26.1204,66.5649,154.8,180,0,-1.24113
0.88,321.864,26.0542,69.6968,158.4,180,0,-1.17408
0.9,325.067,25.9914,72.9003,162,180,0,-1.06362
0.92,328.343,25.9349,76.1765,165.6,180,0,-0.900957
0.94,331.691,25.8884,79.5248,169.2,180,0,-0.677769
0.96,335.11,25.8562,82.9442,172.8,180,0,-0.386775
0.98,338.602,25.8435,86.4367,176.4,180,0,-0.0172075
1,342.166,25.8559,90,180,4.98003e-07,0,0.432174
1.02,345.765,25.8992,93.6,180,0,0,0.95988
1.04,349.364,25.9778,97.2,180,0,0,1.55366
1.06,352.962,26.0956,100.8,180,0,0,2.20617
1.08,356.553,26.2555,104.394,178.6,-180,0,2.90217
1.1,360.083,26.4564,107.93,175,-180,0,3.61654
1.12,363.539,26.6964,111.394,171.4,-180,0,4.33148
1.14,366.919,26.9733,114.786,167.8,-180,0,5.03341
1.16,370.225,27.2843,118.106,164.2,-180,0,5.71138
1.18,373.455,27.6258,121.354,160.6,-180,0,6.35717
1.2,376.609,27.9943,124.53,157,-180,0,6.96585
1.22,379.688,28.3862,127.634,153.4,-180,0,7.53397
1.24,382.692,28.7977,130.666,149.8,-180,0,8.06016
1.26,385.621,29.2253,133.626,146.2,-180,0,8.54452
1.28,388.475,29.6656,136.513,142.6,-180,0,8.98846
1.3,391.255,30.1156,139.33,139,-180,0,9.39385
1.32,393.961,30.5724,142.074,135.4,-180,0,9.76305
1.34,396.593,31.0333,144.746,131.8,-180,0,10.0977
1.36,399.151,31.496,147.345,128.2,-180,0,10.401
1.38,401.637,31.9585,149.874,124.6,-180,0,10.6754
1.4,404.049,32.4187,152.329,121,-180,0,10.9228
1.42,406.388,32.875,154.713,117.4,-180,0,11.1456
1.44,408.657,33.3262,157.026,113.8,-180,0,11.3466
1.46,410.851,33.7702,159.265,110.2,-180,0,11.5261
1.48,412.975,34.2064,161.433,106.6,-180,0,11.6875
1.5,415.026,34.6336,163.528,103,-180,0,11.832
1.52,417.007,35.0509,165.552,99.4,-180,0,11.9613
1.54,418.916,35.4573,167.504,95.8,-180,0,12.0764
1.56,420.754,35.8523,169.384,92.2,-180,0,12.1786
1.58,422.522,36.2354,171.193,88.6,-180,0,12.2693
1.6,424.219,36.6057,172.93,85,-180,0,12.3493
1.62,425.841,36.9621,174.591,81.4,-180,0,12.4196
1.64,427.397,37.3056,176.184,77.8,-180,0,12.4814
1.66,428.88,37.6346,177.703,74.2,-180,0,12.535
1.68,430.294,37.9497,179.152,70.6,-180,0,12.5821
1.7,431.634,38.2493,180.526,67,-180,0,12.6218
1.72,432.909,38.5351,181.832,63.4,-180,0,12.6562
1.74,434.112,38.8057,183.065,59.8,-180,0,12.6857
1.76,435.24,39.0599,184.221,56.2,-180,0,12.7099
1.78,436.3,39.299,185.307,52.6,-180,0,12.7304
1.8,437.289,39.5228,186.322,49,-180,0,12.7473
1.82,438.21,39.7311,187.266,45.4,-180,0,12.7609
1.84,439.062,39.9243,188.14,41.8,-180,0,12.7725
1.86,439.846,40.1021,188.944,38.2,-180,0,12.7806
1.88,440.543,40.2603,189.658,34.6,-180,0,12.7874
1.9,441.178,40.4043,190.309,31,-180,0,12.7924
1.92,441.76,40.5365,190.906,27.4,-180,0,12.796
1.94,442.228,40.6428,191.386,23.8,-180,0,12.7984
1.96,442.674,40.7443,191.844,20.2,-180,0,12.8005
1.98,442.949,40.8066,192.125,16.6,-180,0,12.8015
2,443.134,40.8486,192.315,13,-180,0,12.8019
2.02,443.319,40.8907,192.505,9.4,-180,0,12.8023
2.04,443.504,40.9327,192.694,5.8,-180,0,12.8027
2.06,443.689,40.9748,192.884,2.2,-180,0,12.8031
