"time","x","y","position","velocity","acceleration","jerk","heading"
0,493.661,6.9482,0,0,0,0,-180
0.02,493.47,6.9482,0.190733,9.53665,476.833,23841.6,179.997
0.04,493.28,6.9482,0.38071,9.49887,-1.88913,-23936.1,179.993
0.06,493.09,6.9482,0.571443,9.53665,1.88913,188.913,179.99
0.08,492.899,6.9482,0.762421,9.54887,0.610865,-63.9135,179.986
0.1,492.708,6.9483,0.953154,9.53665,-0.610799,-61.0832,179.983
0.12,492.318,6.9484,1.34255,19.4699,496.663,24863.7,179.965
0.14,491.855,6.94881,1.80642,23.1932,186.166,-15524.9,179.941
0.16,491.312,6.94942,2.34946,27.1521,197.942,588.803,179.904
0.18,490.703,6.95064,2.95843,30.4487,164.833,-1655.45,179.855
0.2,489.99,6.95281,3.67125,35.6409,259.609,4738.83,179.778
0.22,489.214,6.95632,4.44696,38.7855,157.229,-5119.03,179.681
0.24,488.362,6.96192,5.29928,42.6158,191.518,1714.5,179.557
0.26,487.427,6.97028,6.23441,46.7566,207.036,775.879,179.397
0.28,486.406,6.98268,7.25484,51.0215,213.246,310.51,179.195
0.3,485.301,7.00047,8.36006,55.2611,211.98,-63.3062,178.945
0.32,484.108,7.02555,9.55307,59.6508,219.488,375.384,178.639
0.34,482.84,7.05955,10.8217,63.4305,188.982,-1525.29,178.274
0.36,481.539,7.10329,12.1233,65.0785,82.399,-5329.15,177.857
0.38,480.227,7.15748,13.4364,65.6577,28.9603,-2671.94,177.394
0.4,478.904,7.22351,14.7618,66.2675,30.4937,76.6716,176.883
0.42,477.568,7.30268,16.0997,66.8956,31.4049,45.5574,176.319
0.44,476.222,7.39632,17.4496,67.4958,30.0077,-69.859,175.705
0.46,474.864,7.50593,18.812,68.1188,31.1505,57.1419,175.04
0.48,473.494,7.63316,20.1873,68.767,32.4079,62.8688,174.323
0.5,472.114,7.77959,21.5756,69.4161,32.4564,2.42682,173.551
0.52,470.718,7.94731,22.9812,70.2788,43.134,533.878,172.712
0.54,469.31,8.13822,24.4017,71.026,37.3614,-288.627,171.809
0.56,467.893,8.35387,25.8352,71.6739,32.3956,-248.29,170.852
0.58,466.466,8.59622,27.2829,72.3842,35.5155,155.995,169.838
0.6,465.025,8.8682,28.7495,73.3307,47.3258,590.511,168.746
0.62,463.575,9.17125,30.2306,74.0561,36.2681,-552.885,167.597
0.64,462.113,9.5089,31.7312,75.0269,48.5381,613.503,166.366
0.66,460.643,9.88255,33.2482,75.8542,41.3663,-358.593,165.068
0.68,459.166,10.2949,34.7817,76.6725,40.915,-22.561,163.704
0.7,457.68,10.7495,36.3357,77.7006,51.4046,524.48,162.253
0.72,456.19,11.2472,37.9064,78.5371,41.8237,-479.045,160.739
0.74,454.697,11.7918,39.4953,79.4435,45.3204,174.832,159.146
0.76,453.207,12.3839,41.0992,80.1921,37.4306,-394.49,157.492
0.78,451.718,13.0268,42.7211,81.0988,45.3343,395.187,155.766
0.8,450.239,13.7197,44.3535,81.6186,25.9916,-967.136,153.994
0.82,448.766,14.4682,46.0065,82.6515,51.6434,1282.59,152.14
0.84,447.309,15.2685,47.6684,83.0914,21.9997,-1482.19,150.251
0.86,445.871,16.1222,49.3405,83.609,25.8786,193.943,148.319
0.88,444.459,17.0279,51.0187,83.9069,14.8943,-549.216,146.361
0.9,443.072,17.9854,52.7035,84.2419,16.7516,92.8662,144.375
0.92,441.718,18.9917,54.3904,84.3424,5.02391,-586.384,142.382
0.94,440.4,20.0447,56.0779,84.3746,1.60711,-170.84,140.388
0.96,439.121,21.1409,57.7621,84.211,-8.17627,-489.169,138.406
0.98,437.885,22.2764,59.4407,83.9336,-13.8716,-284.765,136.448
1,436.694,23.4482,61.1115,83.5361,-19.8759,-300.218,134.52
1.02,435.549,24.6515,62.7723,83.0399,-24.8067,-246.54,132.634
1.04,434.453,25.8815,64.4197,82.3695,-33.5225,-435.79,130.802
1.06,433.405,27.1354,66.0543,81.7299,-31.9788,77.186,129.024
1.08,432.405,28.4087,67.6734,80.9568,-38.6544,-333.778,127.308
1.1,431.451,29.6995,69.2784,80.2511,-35.2843,168.504,125.65
1.12,430.545,30.9995,70.8627,79.2139,-51.8625,-828.908,124.078
1.14,429.684,32.3116,72.4322,78.4751,-36.9421,746.019,122.564
1.16,428.866,33.6282,73.982,77.4882,-49.3428,-620.037,121.133
1.18,428.089,34.9509,75.5161,76.7062,-39.0977,512.254,119.766
1.2,427.352,36.2759,77.0323,75.8096,-44.8307,-286.65,118.471
1.22,426.651,37.6015,78.5318,74.9751,-41.7254,155.265,117.246
1.24,425.987,38.9256,80.0131,74.0679,-45.3635,-181.902,116.094
1.26,425.355,40.2483,81.479,73.2914,-38.8214,327.102,115.006
1.28,424.754,41.5698,82.9308,72.594,-34.8715,197.496,113.975
1.3,424.183,42.8846,84.3644,71.6755,-45.923,-552.576,113.019
1.32,423.638,44.198,85.7864,71.1039,-28.58,867.152,112.11
1.34,423.118,45.5046,87.1924,70.2974,-40.3251,-587.257,111.267
1.36,422.621,46.8077,88.5872,69.7399,-27.8747,622.523,110.471
1.38,422.147,48.106,89.9692,69.0989,-32.0496,-208.746,109.725
1.4,421.693,49.3992,91.34,68.541,-27.8983,207.565,109.026
1.42,421.257,50.6858,92.6983,67.9158,-31.2595,-168.058,108.379
1.44,420.839,51.9676,94.0465,67.4119,-25.1952,303.211,107.772
1.46,420.438,53.2442,95.3848,66.9137,-24.9103,14.2458,107.206
1.48,420.051,54.5168,96.7149,66.5057,-20.4011,225.46,106.673
1.5,419.677,55.7833,98.0355,66.0315,-23.7094,-165.412,106.18
1.52,419.317,57.0439,99.3464,65.5409,-24.5265,-40.8538,105.726
1.54,418.969,58.2993,100.649,65.1449,-19.7995,236.348,105.305
1.56,418.631,59.55,101.945,64.7789,-18.3044,74.7536,104.914
1.58,418.303,60.7962,103.233,64.423,-17.792,25.6233,104.552
1.6,417.985,62.0379,104.515,64.0923,-16.5345,62.8715,104.217
1.62,417.676,63.2743,105.79,63.7223,-18.5009,-98.3164,103.912
1.64,417.373,64.5064,107.058,63.4369,-14.2686,211.614,103.631
1.66,417.079,65.7346,108.321,63.1532,-14.1859,4.13203,103.373
1.68,416.79,66.9588,109.579,62.8801,-13.6542,26.5855,103.137
1.7,416.509,68.1791,110.831,62.6204,-12.9888,33.2721,102.922
1.72,416.231,69.3951,112.079,62.3668,-12.6805,15.4147,102.729
1.74,415.96,70.6075,113.321,62.1185,-12.4108,13.485,102.555
1.76,415.693,71.8164,114.559,61.9051,-10.6715,86.965,102.399
1.78,415.428,73.0219,115.793,61.7052,-9.99473,33.8377,102.26
1.8,415.169,74.2245,117.024,61.5137,-9.57783,20.8452,102.136
1.82,414.912,75.4235,118.25,61.3045,-10.457,-43.9601,102.029
1.84,414.659,76.6196,119.472,61.1371,-8.37122,104.291,101.936
1.86,414.407,77.8132,120.692,60.9948,-7.11433,62.8448,101.855
1.88,414.158,79.0041,121.909,60.8247,-8.50321,-69.4443,101.787
1.9,413.91,80.1925,123.123,60.7001,-6.23004,113.658,101.73
1.92,413.665,81.3783,124.334,60.543,-7.85752,-81.3739,101.685
1.94,413.42,82.5622,125.543,60.4477,-4.76332,154.71,101.649
1.96,413.177,83.7439,126.749,60.3277,-6.00297,-61.9824,101.622
1.98,412.935,84.9237,127.953,60.2125,-5.75607,12.3451,101.604
2,412.693,86.1018,129.156,60.142,-3.52805,111.401,101.593
2.02,412.451,87.2783,130.357,60.0513,-4.53425,-50.3103,101.589
2.04,412.211,88.4534,131.557,59.9731,-3.9101,31.2077,101.591
2.06,411.97,89.6274,132.755,59.9242,-2.44346,73.3318,101.597
2.08,411.729,90.8005,133.953,59.8754,-2.44346,8.60126e-06,101.607
2.1,411.493,91.9477,135.124,58.5642,-65.5559,-3155.62,101.62
2.12,411.272,93.0241,136.223,54.9433,-181.047,-5774.55,101.634
2.14,411.064,94.0302,137.25,51.3642,-178.953,104.717,101.648
2.16,410.871,94.9679,138.208,47.8684,-174.79,208.141,101.662
2.18,410.692,95.8354,139.093,44.2918,-178.831,-202.046,101.675
2.2,410.529,96.6241,139.899,40.2637,-201.405,-1128.74,101.685
2.22,410.381,97.3422,140.632,36.6651,-179.931,1073.71,101.695
2.24,410.244,98.0023,141.306,33.7036,-148.073,1592.9,101.703
2.26,410.123,98.5848,141.901,29.7469,-197.838,-2488.25,101.709
2.28,410.02,99.0839,142.411,25.4862,-213.033,-759.741,101.713
2.3,409.927,99.5319,142.868,22.8776,-130.428,4130.25,101.717
2.32,409.858,99.8654,143.209,17.0282,-292.472,-8102.2,101.719
2.34,409.819,100.05,143.398,9.44109,-379.356,-4344.19,101.72
2.36,409.781,100.236,143.587,9.47988,1.93978,19064.8,101.721
2.38,409.742,100.422,143.777,9.49002,0.506728,-71.6528,101.722
2.4,409.703,100.607,143.967,9.49002,-2.24775e-08,-25.3364,101.723
