"time","x","y","position","velocity","acceleration","jerk","heading"
0,493.661,34.9482,0,0,0,0,-180
0.02,493.472,34.9482,0.189267,9.46335,473.167,23658.4,179.997
0.04,493.284,34.9482,0.37729,9.40113,-3.11087,-23813.9,179.993
0.06,493.094,34.9482,0.566557,9.46335,3.11087,311.087,179.99
0.08,492.905,34.9482,0.755579,9.45113,-0.610865,-186.087,179.986
0.1,492.716,34.9483,0.944846,9.46335,0.610931,61.0898,179.983
0.12,492.336,34.9484,1.32545,19.0301,478.337,23886.3,179.965
0.14,491.883,34.9488,1.77758,22.6068,178.835,-14975.1,179.941
0.16,491.358,34.9494,2.30254,26.248,182.059,161.197,179.904
0.18,490.773,34.9506,2.88757,29.2514,150.172,-1594.37,179.855
0.2,490.098,34.9526,3.56276,33.7594,225.401,3761.45,179.778
0.22,489.37,34.9559,4.29107,36.4153,132.794,-4630.34,179.681
0.24,488.578,34.9611,5.08279,39.5859,158.532,1286.89,179.557
0.26,487.721,34.9687,5.93973,42.847,163.054,226.102,179.397
0.28,486.8,34.9799,6.86144,46.0857,161.934,-56.0081,179.195
0.3,485.817,34.9957,7.84449,49.1524,153.337,-429.823,178.945
0.32,484.774,35.0177,8.88797,52.1739,151.071,-113.304,178.639
0.34,483.684,35.0468,9.9782,54.5119,116.9,-1708.54,178.274
0.36,482.587,35.0837,11.076,54.8892,18.8694,-4901.54,177.857
0.38,481.501,35.1285,12.1629,54.3445,-27.2389,-2305.41,177.394
0.4,480.426,35.1821,13.2385,53.7815,-28.1488,-45.496,176.883
0.42,479.366,35.2449,14.3008,53.1146,-33.3461,-259.866,176.319
0.44,478.318,35.3177,15.3507,52.493,-31.078,113.406,175.705
0.46,477.284,35.4011,16.3881,51.8699,-31.1568,-3.93649,175.04
0.48,476.264,35.4958,17.413,51.2475,-31.1209,1.79065,174.323
0.5,475.258,35.6024,18.4241,50.5527,-34.7373,-180.819,173.551
0.52,474.27,35.7211,19.4196,49.7783,-38.7199,-199.128,172.712
0.54,473.3,35.8526,20.3989,48.9618,-40.827,-105.357,171.809
0.56,472.345,35.9977,21.3647,48.2903,-33.5756,362.571,170.852
0.58,471.406,36.157,22.3168,47.6078,-34.1205,-27.2451,169.838
0.6,470.489,36.3298,23.2498,46.6485,-47.9652,-692.232,168.746
0.62,469.589,36.5178,24.1694,45.9812,-33.3672,729.896,167.597
0.64,468.713,36.7199,25.0684,44.9484,-51.6385,-913.562,166.366
0.66,467.857,36.9371,25.9512,44.1387,-40.4845,557.697,165.068
0.68,467.022,37.1699,26.8181,43.3445,-39.7139,38.533,163.704
0.7,466.214,37.4171,27.663,42.2469,-54.878,-758.206,162.253
0.72,465.426,37.68,28.4939,41.5441,-35.1384,986.98,160.739
0.74,464.665,37.9576,29.3043,40.5204,-51.1879,-802.475,159.146
0.76,463.925,38.2511,30.0999,39.7786,-37.0875,705.021,157.492
0.78,463.21,38.5594,30.8784,38.9262,-42.6206,-276.658,155.766
0.8,462.517,38.8847,31.6448,38.3222,-30.2017,620.944,153.994
0.82,461.85,39.2228,32.3919,37.3517,-48.5259,-916.205,152.14
0.84,461.203,39.5783,33.1306,36.9366,-20.755,1388.54,150.251
0.86,460.577,39.9498,33.8587,36.4036,-26.6486,-294.678,148.319
0.88,459.969,40.3391,34.58,36.0663,-16.8663,489.11,146.361
0.9,459.382,40.7452,35.2943,35.7172,-17.4518,-29.2727,144.375
0.92,458.81,41.1705,36.0073,35.6467,-3.52692,696.244,142.382
0.94,458.252,41.6153,36.7203,35.6544,0.385616,195.627,140.388
0.96,457.709,42.0811,37.436,35.7841,6.48224,304.831,138.406
0.98,457.177,42.5694,38.1579,36.093,15.4456,448.17,136.448
1,456.658,43.0806,38.8865,36.4284,16.771,66.2694,134.52
1.02,456.149,43.6163,39.6256,36.9584,26.4986,486.377,132.634
1.04,455.649,44.1781,40.3778,37.6072,32.4424,297.193,130.802
1.06,455.157,44.7654,41.1435,38.2869,33.9862,77.1877,129.024
1.08,454.675,45.3795,41.9241,39.0286,37.0843,154.909,127.308
1.1,454.203,46.0189,42.7189,39.74,35.5683,-75.8024,125.65
1.12,453.737,46.6885,43.535,40.8039,53.1957,881.372,124.078
1.14,453.282,47.3824,44.3646,41.4822,33.9128,-964.147,122.564
1.16,452.834,48.105,45.2151,42.5232,52.0516,906.939,121.133
1.18,452.395,48.8517,46.0812,43.3049,39.0872,-648.221,119.766
1.2,451.966,49.6239,46.9645,44.1675,43.1284,202.064,118.471
1.22,451.545,50.4203,47.8654,45.0433,43.79,33.0791,117.246
1.24,451.133,51.2412,48.7838,45.9197,43.8182,1.4116,116.094
1.26,450.731,52.0843,49.7179,46.707,39.3655,-222.635,115.006
1.28,450.338,52.9472,50.666,47.4023,34.7641,-230.074,113.975
1.3,449.953,53.8336,51.6323,48.3163,45.7033,546.961,113.019
1.32,449.578,54.7368,52.6101,48.8931,28.8394,-843.191,112.11
1.34,449.212,55.6606,53.6041,49.6992,40.3067,573.363,111.267
1.36,448.853,56.6003,54.6099,50.2901,29.5452,-538.077,110.471
1.38,448.505,57.5562,55.6273,50.8709,29.036,-25.4561,109.725
1.4,448.163,58.5272,56.6566,51.4613,29.5213,24.2642,109.026
1.42,447.829,59.5142,57.6987,52.1067,32.2694,137.405,108.379
1.44,447.503,60.514,58.7503,52.5801,23.6733,-429.808,107.772
1.46,447.184,61.5268,59.812,53.0837,25.18,75.339,107.206
1.48,446.873,62.5502,60.8816,53.4821,19.9155,-263.227,106.673
1.5,446.567,63.5857,61.9613,53.9852,25.1593,262.193,106.18
1.52,446.269,64.6329,63.0503,54.4477,23.1207,-101.934,105.726
1.54,445.975,65.6901,64.1474,54.858,20.5172,-130.175,105.305
1.56,445.687,66.7564,65.2519,55.2249,18.3473,-108.496,104.914
1.58,445.405,67.8314,66.3635,55.5777,17.638,-35.4617,104.552
1.6,445.127,68.9145,67.4816,55.9067,16.452,-59.2998,104.217
1.62,444.854,70.0063,68.607,56.2698,18.151,84.9462,103.912
1.64,444.585,71.1052,69.7384,56.5708,15.0528,-154.907,103.631
1.66,444.319,72.2108,70.8754,56.8491,13.9138,-56.9522,103.373
1.68,444.058,73.3226,72.0177,57.1136,13.2238,-34.4999,103.137
1.7,443.799,74.4405,73.165,57.3669,12.6675,-27.8125,102.922
1.72,443.543,75.5647,74.3181,57.6509,14.1975,76.5006,102.729
1.74,443.29,76.6941,75.4754,57.8669,10.8021,-169.774,102.555
1.76,443.039,77.8286,76.6373,58.0933,11.3196,25.8778,102.399
1.78,442.79,78.9677,77.8034,58.3088,10.7747,-27.246,102.26
1.8,442.543,80.1111,78.9731,58.4838,8.7481,-101.33,102.136
1.82,442.298,81.2589,80.1469,58.69,10.3124,78.2131,102.029
1.84,442.053,82.4106,81.3242,58.8647,8.733,-78.9681,101.936
1.86,441.809,83.5654,82.5045,59.0156,7.54645,-59.3274,101.855
1.88,441.568,84.7237,83.6878,59.1632,7.37929,-8.35813,101.787
1.9,441.326,85.8849,84.8739,59.3074,7.20898,-8.51549,101.73
1.92,441.085,87.0491,86.0628,59.4434,6.80324,-20.2867,101.685
1.94,440.844,88.2158,87.2542,59.5681,6.23225,-28.5498,101.649
1.96,440.603,89.3847,88.4475,59.6679,4.9926,-61.9823,101.622
1.98,440.363,90.5557,89.643,59.7727,5.23951,12.3453,101.604
2,440.121,91.7286,90.8404,59.8732,5.02407,-10.7721,101.593
2.02,439.881,92.9033,92.0395,59.9536,4.01786,-50.3104,101.589
2.04,439.639,94.0792,93.2399,60.022,3.42029,-29.8787,101.591
2.06,439.398,95.2562,94.4414,60.0708,2.44346,-48.8412,101.597
2.08,439.157,96.4341,95.6438,60.1197,2.44346,-8.55922e-06,101.607
2.1,438.919,97.5875,96.8214,58.8819,-61.8907,-3216.71,101.62
2.12,438.696,98.6705,97.9271,55.2854,-179.825,-5896.72,101.634
2.14,438.488,99.6834,98.9612,51.7063,-178.953,43.63,101.648
2.16,438.293,100.628,99.9254,48.2105,-174.79,208.141,101.662
2.18,438.112,101.501,100.818,44.6095,-180.052,-263.133,101.675
2.2,437.949,102.295,101.628,40.5081,-205.071,-1250.91,101.685
2.22,437.799,103.018,102.366,36.9094,-179.931,1256.97,101.695
2.24,437.662,103.682,103.044,33.8991,-150.517,1470.73,101.703
2.26,437.541,104.267,103.642,29.8935,-200.282,-2488.25,101.709
2.28,437.436,104.768,104.154,25.5839,-215.477,-759.741,101.713
2.3,437.343,105.218,104.613,22.9754,-130.428,4252.42,101.717
2.32,437.274,105.553,104.955,17.0771,-294.915,-8224.37,101.719
2.34,437.235,105.738,105.144,9.46552,-380.578,-4283.1,101.72
2.36,437.197,105.924,105.334,9.50432,1.93978,19125.9,101.721
2.38,437.158,106.11,105.524,9.51445,0.506731,-71.6526,101.722
2.4,437.119,106.297,105.715,9.51445,2.23504e-08,-25.3366,101.723
