"time","x","y","position","velocity","acceleration","jerk","heading"
0,20,180,0,0,40,0,0
0.02,20.0894,180,0.0894427,0.8,40,0,0
0.04,20.1789,180,0.178885,1.6,40,0,0
0.06,20.2683,180,0.268328,2.4,40,0,0
0.08,20.3578,180,0.357771,3.2,40,0,0
0.1,20.4472,180,0.447214,4,40,0,0
0.12,20.5367,180,0.536656,4.8,40,0,0
0.14,20.6261,180,0.626099,5.6,40,0,0
0.16,20.7155,180,0.715542,6.4,40,0,0
0.18,20.805,180,0.804984,7.2,40,0,0
0.2,20.8944,180,0.894427,8,40,0,0
0.22,20.9839,180,0.98387,8.8,40,0,0
0.24,21.177,180,1.17699,9.6,40,0,0
0.26,21.3929,180,1.39293,10.4,40,0,0
0.28,21.6089,180,1.60886,11.2,40,0,0
0.3,21.8248,180,1.82479,12,40,0,0
0.32,22.0531,180,2.05308,12.8,40,0,0
0.34,22.3345,180,2.33449,13.6,40,0,0
0.36,22.6159,180,2.6159,14.4,40,0,0
0.38,22.8973,180,2.89731,15.2,40,0,0
0.4,23.212,180,3.21199,16,40,0,0
0.42,23.5458,180,3.5458,16.8,40,0,0
0.44,23.8796,180,3.8796,17.6,40,0,0
0.46,24.2422,180,4.24223,18.4,40,0,0
0.48,24.6211,180,4.62111,19.2,40,0,0
0.5,25,180,5,20,40,0,0
0.52,25.4191,180,5.41909,20.8,40,0,0
0.54,25.8382,180,5.83818,21.6,40,0,0
0.56,26.2798,180,6.27976,22.4,40,0,0
0.58,26.7355,180,6.73549,23.2,40,0,0
0.6,27.2054,180,7.20545,24,40,0,0
0.62,27.6951,180,7.69507,24.8,40,0,0
0.64,28.1967,180,8.19665,25.6,40,0,0
0.66,28.718,180,8.71796,26.4,40,0,0
0.68,29.253,180,9.25298,27.2,40,0,0
0.7,29.8041,180,9.80415,28,40,0,0
0.72,30.3736,180,10.3736,28.8,40,0,0
0.74,30.9531,180,10.9531,29.6,40,0,0
0.76,31.5574,180,11.5574,30.4,40,0,0
0.78,32.1708,180,12.1708,31.2,40,0,0
0.8,32.8032,180,12.8032,32,40,0,0
0.82,33.4526,180,13.4526,32.8,40,0,0
0.84,34.1137,180,14.1137,33.6,40,0,0
0.86,34.7948,180,14.7948,34.4,40,0,0
0.88,35.492,180,15.492,35.2,40,0,0
0.9,36.2024,180,16.2024,36,40,0,0
0.92,36.929,180,16.929,36.8,40,0,0
0.94,37.6751,180,17.6751,37.6,40,0,0
0.96,38.4353,180,18.4353,38.4,40,0,0
0.98,39.2101,180,19.2101,39.2,31.5949,0,0
1,40,180,20,40,0,0,0
1.02,40.8,180,20.8,40,0,0,0
1.04,41.6,180,21.6,40,0,0,0
1.06,42.4,180,22.4,40,0,0,0
1.08,43.2,180,23.2,40,0,0,0
1.1,44,180,24,40,0,0,0
1.12,44.8,180,24.8,40,0,0,0
1.14,45.6,180,25.6,40,0,0,0
1.16,46.4,180,26.4,40,0,0,0
1.18,47.2,180,27.2,40,0,0,0
1.2,48,180,28,40,0,0,0
1.22,48.8,180,28.8,40,0,0,0
1.24,49.6,180,29.6,40,0,0,0
1.26,50.4,180,30.4,40,0,0,0
1.28,51.2,180,31.2,40,0,0,0
1.3,52,180,32,40,0,0,0
1.32,52.8,180,32.8,40,0,0,0
1.34,53.6,180,33.6,40,0,0,0
1.36,54.4,180,34.4,40,0,0,0
1.38,55.2,180,35.2,40,0,0,0
1.4,56,180,36,40,0,0,0
1.42,56.8,180,36.8,40,0,0,0
1.44,57.6,180,37.6,40,0,0,0
1.46,58.4,180,38.4,40,0,0,0
1.48,59.2,180,39.2,40,0,0,0
1.5,60,180,40,40,0,0,0
1.52,60.8,180,40.8,40,0,0,0
1.54,61.6,180,41.6,40,0,0,0
1.56,62.4,180,42.4,40,0,0,0
1.58,63.2,180,43.2,40,0,0,0
1.6,64,180,44,40,0,0,0
1.62,64.8,180,44.8,40,0,0,0
1.64,65.6,180,45.6,40,0,0,0
1.66,66.4,180,46.4,40,0,0,0
1.68,67.2,180,47.2,40,0,0,0
1.7,68,180,48,40,0,0,0
1.72,68.8,180,48.8,40,0,0,0
1.74,69.6,180,49.6,40,0,0,0
1.76,70.4,180,50.4,40,0,0,0
1.78,71.2,180,51.2,40,0,0,0
1.8,72,180,52,40,0,0,0
1.82,72.8,180,52.8,40,0,0,0
1.84,73.6,180,53.6,40,0,0,0
1.86,74.4,180,54.4,40,0,0,0
1.88,75.2,180,55.2,40,0,0,0
1.9,76,180,56,40,0,0,0
1.92,76.8,180,56.8,40,0,0,0
1.94,77.6,180,57.6,40,0,0,0
1.96,78.4,180,58.4,40,0,0,0
1.98,79.2,180,59.2,40,0,0,0
2,80,180,60,40,0,0,0
2.02,80.8,180,60.8,40,0,0,0
2.04,81.6,180,61.6,40,0,0,0
2.06,82.4,180,62.4,40,0,0,0
2.08,83.2,180,63.2,40,0,0,0
2.1,84,180,64,40,0,0,0
2.12,84.8,180,64.8,40,0,0,0
2.14,85.6,180,65.6,40,0,0,0
2.16,86.4,180,66.4,40,0,0,0
2.18,87.2,180,67.2,40,0,0,0
2.2,88,180,68,40,0,0,0
2.22,88.8,180,68.8,40,0,0,0
2.24,89.6,180,69.6,40,0,0,0
2.26,90.4,180,70.4,40,0,0,0
2.28,91.2,180,71.2,40,0,0,0
2.3,92,180,72,40,0,0,0
2.32,92.8,180,72.8,40,0,0,0
2.34,93.6,180,73.6,40,0,0,0
2.36,94.4,180,74.4,40,0,0,0
2.38,95.2,180,75.2,40,0,0,0
2.4,96,180,76,40,0,0,0
2.42,96.8,180,76.8,40,0,0,0
2.44,97.6,180,77.6,40,0,0,0
2.46,98.4,180,78.4,40,0,0,0
2.48,99.2,180,79.2,40,0,0,0
2.5,100,180,80,40,0,0,0
2.52,100.8,180,80.8,40,0,0,0
2.54,101.6,180,81.6,40,0,0,0
2.56,102.4,180,82.4,40,0,0,0
2.58,103.2,180,83.2,40,0,0,0
2.6,104,180,84,40,0,0,0
2.62,104.8,180,84.8,40,0,0,0
2.64,105.6,180,85.6,40,0,0,0
2.66,106.4,180,86.4,40,0,0,0
2.68,107.2,180,87.2,40,0,0,0
2.7,108,180,88,40,0,0,0
2.72,108.8,180,88.8,40,0,0,0
2.74,109.6,180,89.6,40,0,0,0
2.76,110.4,180,90.4,40,0,0,0
2.78,111.2,180,91.2,40,0,0,0
2.8,112,180,92,40,0,0,0
2.82,112.8,180,92.8,40,0,0,0
2.84,113.6,180,93.6,40,0,0,0
2.86,114.4,180,94.4,40,0,0,0
2.88,115.2,180,95.2,40,0,0,0
2.9,116,180,96,40,0,0,0
2.92,116.8,180,96.8,40,0,0,0
2.94,117.6,180,97.6,40,0,0,0
2.96,118.4,180,98.4,40,0,0,0
2.98,119.2,180,99.2,40,0,0,0
3,120,180,100,40,0,0,0
3.02,120.8,180,100.8,40,0,0,0
3.04,121.6,180,101.6,40,0,0,0
3.06,122.4,180,102.4,40,0,0,0
3.08,123.2,180,103.2,40,0,0,0
3.1,124,180,104,40,0,0,0
3.12,124.8,180,104.8,40,0,0,0
3.14,125.6,180,105.6,40,0,0,0
3.16,126.4,180,106.4,40,0,0,0
3.18,127.2,180,107.2,40,0,0,0
3.2,128,180,108,40,0,0,0
3.22,128.8,180,108.8,40,0,0,0
3.24,129.6,180,109.6,40,0,0,0
3.26,130.4,180,110.4,40,0,0,0
3.28,131.2,180,111.2,40,0,0,0
3.3,132,180,112,40,0,0,0
3.32,132.8,180,112.8,40,0,0,0
3.34,133.6,180,113.6,40,0,0,0
3.36,134.4,180,114.4,40,0,0,0
3.38,135.2,180,115.2,40,0,0,0
3.4,136,180,116,40,0,0,0
3.42,136.8,180,116.8,40,0,0,0
3.44,137.6,180,117.6,40,0,0,0
3.46,138.4,180,118.4,40,0,0,0
3.48,139.2,180,119.2,40,0,0,0
3.5,140,180,120,40,0,0,0
3.52,140.8,180,120.8,40,0,0,0
3.54,141.6,180,121.6,40,0,0,0
3.56,142.4,180,122.4,40,0,0,0
3.58,143.2,180,123.2,40,0,0,0
3.6,144,180,124,40,0,0,0
3.62,144.8,180,124.8,40,0,0,0
3.64,145.6,180,125.6,40,0,0,0
3.66,146.4,180,126.4,40,0,0,0
3.68,147.2,180,127.2,40,0,0,0
3.7,148,180,128,40,0,0,0
3.72,148.8,180,128.8,40,0,0,0
3.74,149.6,180,129.6,40,0,0,0
3.76,150.4,180,130.4,40,0,0,0
3.78,151.2,180,131.2,40,0,0,0
3.8,152,180,132,40,0,0,0
3.82,152.8,180,132.8,40,0,0,0
3.84,153.6,180,133.6,40,0,0,0
3.86,154.4,180,134.4,40,0,0,0
3.88,155.2,180,135.2,40,0,0,0
3.9,156,180,136,40,0,0,0
3.92,156.8,180,136.8,40,0,0,0
3.94,157.6,180,137.6,40,0,0,0
3.96,158.4,180,138.4,40,0,0,0
3.98,159.2,180,139.2,40,0,0,0
4,160,180,140,40,0,0,0
4.02,160.8,180,140.8,40,0,0,0
4.04,161.6,180,141.6,40,0,0,0
4.06,162.4,180,142.4,40,0,0,0
4.08,163.2,180,143.2,40,0,0,0
4.1,164,180,144,40,0,0,0
4.12,164.8,180,144.8,40,0,0,0
4.14,165.6,180,145.6,40,0,0,0
4.16,166.4,180,146.4,40,0,0,0
4.18,167.2,180,147.2,40,0,0,0
4.2,168,180,148,40,0,0,0
4.22,168.8,180,148.8,40,0,0,0
4.24,169.6,180,149.6,40,0,0,0
4.26,170.4,180,150.4,40,0,0,0
4.28,171.2,180,151.2,40,0,0,0
4.3,172,180,152,40,0,0,0
4.32,172.8,180,152.8,40,0,0,0
4.34,173.6,180,153.6,40,0,0,0
4.36,174.4,180,154.4,40,0,0,0
4.38,175.2,180,155.2,40,0,0,0
4.4,176,180,156,40,0,0,0
4.42,176.8,180,156.8,40,0,0,0
4.44,177.6,180,157.6,40,0,0,0
4.46,178.4,180,158.4,40,0,0,0
4.48,179.2,180,159.2,40,0,0,0
4.5,180,180,160,40,0,0,0
4.52,180.8,180,160.8,40,0,0,0
4.54,181.6,180,161.6,40,0,0,0
4.56,182.4,180,162.4,40,0,0,0
4.58,183.2,180,163.2,40,0,0,0
4.6,184,180,164,40,0,0,0
4.62,184.8,180,164.8,40,0,0,0
4.64,185.6,180,165.6,40,0,0,0
4.66,186.4,180,166.4,40,0,0,0
4.68,187.2,180,167.2,40,0,0,0
4.7,188,180,168,40,0,0,0
4.72,188.8,180,168.8,40,0,0,0
4.74,189.6,180,169.6,40,0,0,0
4.76,190.4,180,170.4,40,0,0,0
4.78,191.2,180,171.2,40,0,0,0
4.8,192,180,172,40,0,0,0
4.82,192.8,180,172.8,40,0,0,0
4.84,193.6,180,173.6,40,0,0,0
4.86,194.4,180,174.4,40,0,0,0
4.88,195.2,180,175.2,40,0,0,0
4.9,196,180,176,40,0,0,0
4.92,196.8,180,176.8,40,0,0,0
4.94,197.6,180,177.6,40,0,0,0
4.96,198.4,180,178.4,40,0,0,0
4.98,199.2,180,179.2,40,-8,0,0
5,200,180,180,40,-40,0,0
5.02,200.79,180,180.79,39.2,-40,0,0
5.04,201.565,180,181.565,38.4,-40,0,0
5.06,202.325,180,182.325,37.6,-40,0,0
5.08,203.071,180,183.071,36.8,-40,0,0
5.1,203.798,180,183.798,36,-40,0,0
5.12,204.508,180,184.508,35.2,-40,0,0
5.14,205.205,180,185.205,34.4,-40,0,0
5.16,205.886,180,185.886,33.6,-40,0,0
5.18,206.547,180,186.547,32.8,-40,0,0
5.2,207.197,180,187.197,32,-40,0,0
5.22,207.829,180,187.829,31.2,-40,0,0
5.24,208.443,180,188.443,30.4,-40,0,0
5.26,209.047,180,189.047,29.6,-40,0,0
5.28,209.626,180,189.626,28.8,-40,0,0
5.3,210.196,180,190.196,28,-40,0,0
5.32,210.747,180,190.747,27.2,-40,0,0
5.34,211.282,180,191.282,26.4,-40,0,0
5.36,211.803,180,191.803,25.6,-40,0,0
5.38,212.305,180,192.305,24.8,-40,0,0
5.4,212.795,180,192.795,24,-40,0,0
5.42,213.265,180,193.265,23.2,-40,0,0
5.44,213.72,180,193.72,22.4,-40,0,0
5.46,214.162,180,194.162,21.6,-40,0,0
5.48,214.581,180,194.581,20.8,-40,0,0
5.5,215,180,195,20,-40,0,0
5.52,215.379,180,195.379,19.2,-40,0,0
5.54,215.758,180,195.758,18.4,-40,0,0
5.56,216.12,180,196.12,17.6,-40,0,0
5.58,216.454,180,196.454,16.8,-40,0,0
5.6,216.788,180,196.788,16,-40,0,0
5.62,217.103,180,197.103,15.2,-40,0,0
5.64,217.384,180,197.384,14.4,-40,0,0
5.66,217.666,180,197.666,13.6,-40,0,0
5.68,217.947,180,197.947,12.8,-40,0,0
5.7,218.175,180,198.175,12,-40,0,0
5.72,218.391,180,198.391,11.2,-40,0,0
5.74,218.607,180,198.607,10.4,-40,0,0
5.76,218.823,180,198.823,9.6,-40,0,0
5.78,219.016,180,199.016,8.8,-40,0,0
5.8,219.106,180,199.106,8,-40,0,0
5.82,219.195,180,199.195,7.2,-40,0,0
5.84,219.284,180,199.284,6.4,-40,0,0
5.86,219.374,180,199.374,5.6,-40,0,0
5.88,219.463,180,199.463,4.8,-40,0,0
5.9,219.553,180,199.553,4,-40,0,0
5.92,219.642,180,199.642,3.2,-40,0,0
5.94,219.732,180,199.732,2.4,-40,0,0
5.96,219.821,180,199.821,1.6,-40,0,0
5.98,219.911,180,199.911,0.8,-40,0,0
6,220,180,200,1.74083e-12,-40,0,0
